ppm,intensity
296.277735,-1978602.0
296.229201,-1541316.0
296.180668,-1119061.0
296.132134,-725615.0
296.0836,-370606.0
296.03506600000003,-58239.0
295.986532,212912.0
295.93799900000005,448251.0
295.889465,653626.0
295.840931,831324.0
295.792397,977841.0
295.74386400000003,1085063.0
295.69532999999996,1144578.0
295.646796,1152912.0
295.59826200000003,1114630.0
295.54972799999996,1041239.0
295.501195,946355.0
295.452661,839918.0
295.404127,724584.0
295.355593,595682.0
295.30706000000004,443995.0
295.25852599999996,259826.0
295.209992,37127.0
295.161458,-223095.0
295.112924,-510740.0
295.064391,-806426.0
295.015857,-1083271.0
294.967323,-1310704.0
294.918789,-1460176.0
294.870256,-1511974.0
294.821722,-1460993.0
294.773188,-1318995.0
294.724654,-1112143.0
294.67612,-874856.0
294.627587,-642305.0
294.579053,-443898.0
294.53051899999997,-299096.0
294.481985,-216008.0
294.433452,-192462.0
294.384918,-218819.0
294.336384,-281896.0
294.28785,-369298.0
294.23931600000003,-472972.0
294.190783,-590359.0
294.14224900000005,-722202.0
294.093715,-868232.0
294.045181,-1023479.0
293.996648,-1177391.0
293.94811400000003,-1315615.0
293.89957999999996,-1422769.0
293.851046,-1484817.0
293.80251200000004,-1490887.0
293.753979,-1434806.0
293.705445,-1316222.0
293.656911,-1140894.0
293.608377,-920028.0
293.559844,-668905.0
293.51131000000004,-405229.0
293.46277599999996,-147457.0
293.414242,86930.0
293.365708,283522.0
293.317175,433696.0
293.268641,537465.0
293.220107,605109.0
293.171573,656322.0
293.12304,716811.0
293.074506,813371.0
293.025972,968576.0
292.977438,1195808.0
292.928904,1495271.0
292.88037099999997,1852014.0
292.831837,2237029.0
292.783303,2611749.0
292.734769,2935333.0
292.686236,3172923.0
292.637702,3302345.0
292.58916800000003,3316655.0
292.540634,3221592.0
292.492101,3029611.0
292.443567,2753977.0
292.395033,2405799.0
292.346499,1994750.0
292.297965,1531944.0
292.24943199999996,1032503.0
292.200898,515602.0
292.15236400000003,1457.0
292.10382999999996,-493276.0
292.055297,-958948.0
292.006763,-1393493.0
291.958229,-1800388.0
291.909695,-2185493.0
291.861161,-2553740.0
291.81262799999996,-2905901.0
291.764094,-3235816.0
291.71556,-3529020.0
291.66702599999996,-3763515.0
291.618493,-3912873.0
291.569959,-3951458.0
291.521425,-3861220.0
291.472891,-3638221.0
291.424357,-3295903.0
291.375824,-2862733.0
291.32729,-2374949.0
291.278756,-1867797.0
291.230222,-1369058.0
291.181689,-896530.0
291.133155,-458849.0
291.08462099999997,-57668.0
291.036087,310593.0
290.987553,654114.0
290.93902,985032.0
290.890486,1317150.0
290.841952,1661616.0
290.79341800000003,2022465.0
290.744885,2394373.0
290.696351,2763242.0
290.647817,3108436.0
290.599283,3405698.0
290.550749,3631021.0
290.50221600000003,3765534.0
290.45368199999996,3799716.0
290.405148,3734631.0
290.35661400000004,3579859.0
290.308081,3350548.0
290.259547,3065991.0
290.211013,2749364.0
290.162479,2426065.0
290.113945,2119175.0
290.06541200000004,1843435.0
290.01687799999996,1600811.0
289.968344,1379807.0
289.91981,1159061.0
289.871277,914535.0
289.822743,628694.0
289.774209,298505.0
289.725675,-61622.0
289.677141,-423916.0
289.628608,-756490.0
289.580074,-1032943.0
289.53154,-1237982.0
289.483006,-1367914.0
289.434473,-1428120.0
289.385939,-1430602.0
289.337405,-1393012.0
289.288871,-1338119.0
289.240337,-1291511.0
289.191804,-1276771.0
289.14327000000003,-1309958.0
289.094736,-1396501.0
289.046202,-1532156.0
288.997669,-1706768.0
288.949135,-1908031.0
288.900601,-2123218.0
288.852067,-2339048.0
288.803533,-2541396.0
288.755,-2716237.0
288.70646600000003,-2851652.0
288.65793199999996,-2939169.0
288.609398,-2972809.0
288.560865,-2946115.0
288.512331,-2849620.0
288.463797,-2671451.0
288.415263,-2401656.0
288.36672999999996,-2037990.0
288.318196,-1589811.0
288.26966200000004,-1077872.0
288.22112799999996,-530212.0
288.172594,23967.0
288.124061,560440.0
288.075527,1064657.0
288.026993,1533956.0
287.978459,1976154.0
287.92992599999997,2404153.0
287.881392,2828264.0
287.832858,3249695.0
287.784324,3657929.0
287.73579,4031879.0
287.687257,4342673.0
287.63872299999997,4556868.0
287.590189,4640663.0
287.541655,4565943.0
287.493122,4317130.0
287.444588,3896580.0
287.396054,3326821.0
287.34752000000003,2649134.0
287.298986,1918625.0
287.250453,1196445.0
287.201919,540569.0
287.153385,-2784.0
287.104851,-405499.0
287.05631800000003,-660819.0
287.00778399999996,-782774.0
286.95925,-801196.0
286.91071600000004,-753117.0
286.86218199999996,-673500.0
286.813649,-589133.0
286.765115,-517811.0
286.716581,-471885.0
286.668047,-462783.0
286.61951400000004,-502879.0
286.57097999999996,-603271.0
286.522446,-769496.0
286.473912,-999235.0
286.42537799999997,-1284617.0
286.376845,-1547096.0
286.328311,-1857800.0
286.279777,-2214699.0
286.231243,-2616761.0
286.18271,-3054887.0
286.13417599999997,-3506776.0
286.085642,-3936183.0
286.037108,-4297967.0
285.988574,-4548200.0
285.940041,-4656080.0
285.891507,-4613004.0
285.842973,-4435285.0
285.794439,-4159824.0
285.745906,-3834771.0
285.69737200000003,-3508348.0
285.648838,-3218883.0
285.600304,-2988474.0
285.55177000000003,-2821820.0
285.503237,-2710155.0
285.454703,-2638090.0
285.406169,-2589595.0
285.357635,-2550180.0
285.309102,-2505671.0
285.26056800000003,-2441208.0
285.21203399999996,-2344030.0
285.1635,-2209808.0
285.11496600000004,-2048257.0
285.066433,-1883355.0
285.017899,-1746893.0
284.969365,-1668252.0
284.920831,-1665066.0
284.872298,-1738415.0
284.82376400000004,-1873721.0
284.77522999999997,-2045980.0
284.726696,-2226449.0
284.678163,-2387846.0
284.629629,-2506985.0
284.581095,-2565829.0
284.532561,-2552875.0
284.484027,-2465561.0
284.435494,-2312578.0
284.38696,-2114244.0
284.33842599999997,-1900065.0
284.289892,-1704078.0
284.241359,-1559162.0
284.192825,-1491348.0
284.144291,-1515117.0
284.095757,-1630821.0
284.047223,-1825039.0
283.99869,-2073370.0
283.950156,-2344214.0
283.90162200000003,-2602534.0
283.853088,-2813985.0
283.804555,-2949898.0
283.756021,-2992195.0
283.707487,-2936061.0
283.658953,-2788995.0
283.610419,-2566940.0
283.56188599999996,-2289355.0
283.513352,-1974829.0
283.46481800000004,-1638014.0
283.41628399999996,-1288423.0
283.367751,-931219.0
283.319217,-569255.0
283.270683,-205088.0
283.222149,157679.0
283.173615,513452.0
283.12508199999996,853780.0
283.076548,1167311.0
283.028014,1441527.0
282.97947999999997,1666073.0
282.930947,1836003.0
282.882413,1953135.0
282.833879,2025064.0
282.785345,2062678.0
282.736811,2077196.0
282.68827799999997,2077204.0
282.639744,2065887.0
282.59121,2039277.0
282.542676,1986841.0
282.494143,1895066.0
282.445609,1752725.0
282.397075,1554867.0
282.348541,1303015.0
282.300007,1001801.0
282.25147400000003,654876.0
282.20294,263231.0
282.154406,-173090.0
282.10587200000003,-651344.0
282.057339,-1162930.0
282.008805,-1692511.0
281.960271,-2219927.0
281.911737,-2724124.0
281.863203,-3187155.0
281.81467000000004,-3596234.0
281.76613599999996,-3943079.0
281.717602,-4221909.0
281.66906800000004,-4428196.0
281.620535,-4559017.0
281.572001,-4613944.0
281.523467,-4595034.0
281.474933,-4505868.0
281.426399,-4350871.0
281.37786600000004,-4135765.0
281.32933199999997,-3868605.0
281.280798,-3560128.0
281.232264,-3222792.0
281.183731,-2869180.0
281.135197,-2510943.0
281.086663,-2158995.0
281.038129,-1824844.0
280.989595,-1522438.0
280.941062,-1269662.0
280.89252799999997,-1088325.0
280.843994,-1001418.0
280.79546,-1027482.0
280.746927,-1174048.0
280.698393,-1433658.0
280.649859,-1784911.0
280.601325,-2197661.0
280.552792,-2638822.0
280.504258,-3075863.0
280.45572400000003,-3478271.0
280.40719,-3819370.0
280.358656,-4079798.0
280.310123,-4251160.0
280.261589,-4337252.0
280.213055,-4351886.0
280.164521,-4314713.0
280.115988,-4246997.0
280.067454,-4168201.0
280.01892000000004,-4093196.0
279.97038599999996,-4030178.0
279.921852,-3980068.0
279.873319,-3937980.0
279.824785,-3896209.0
279.776251,-3847317.0
279.727717,-3785889.0
279.67918399999996,-3708396.0
279.63065,-3611782.0
279.58211600000004,-3492458.0
279.53358199999997,-3347580.0
279.485048,-3178723.0
279.436515,-2995215.0
279.387981,-2813213.0
279.339447,-2649199.0
279.290913,-2511330.0
279.24237999999997,-2394325.0
279.193846,-2281290.0
279.145312,-2151134.0
279.096778,-1987458.0
279.048244,-1785143.0
278.999711,-1552751.0
278.95117700000003,-1310401.0
278.902643,-1084075.0
278.854109,-898433.0
278.805576,-770721.0
278.757042,-707554.0
278.708508,-704906.0
278.65997400000003,-750607.0
278.61144,-828140.0
278.562907,-920383.0
278.514373,-1012347.0
278.465839,-1092848.0
278.417305,-1155607.0
278.36877200000004,-1199700.0
278.32023799999996,-1228455.0
278.271704,-1246323.0
278.22317000000004,-1255123.0
278.17463599999996,-1252118.0
278.126103,-1231319.0
278.077569,-1187009.0
278.029035,-1116984.0
277.980501,-1023675.0
277.93196800000004,-913167.0
277.88343399999997,-793688.0
277.8349,-675165.0
277.786366,-570099.0
277.73783199999997,-494159.0
277.689299,-464383.0
277.640765,-494317.0
277.592231,-588250.0
277.543697,-738181.0
277.495164,-926002.0
277.44662999999997,-1129963.0
277.398096,-1331624.0
277.349562,-1519475.0
277.301028,-1688371.0
277.252495,-1836997.0
277.203961,-1966056.0
277.155427,-2077759.0
277.106893,-2175155.0
277.05836,-2260268.0
277.009826,-2332039.0
276.961292,-2385848.0
276.912758,-2415198.0
276.86422400000004,-2414266.0
276.815691,-2379651.0
276.767157,-2310582.0
276.718623,-2207729.0
276.670089,-2071185.0
276.621556,-1898456.0
276.57302200000004,-1683602.0
276.52448799999996,-1418426.0
276.475954,-1095334.0
276.427421,-710252.0
276.378887,-263916.0
276.330353,238699.0
276.281819,789595.0
276.233285,1378289.0
276.184752,1991751.0
276.13621800000004,2614864.0
276.08768399999997,3231979.0
276.03915,3828616.0
275.990617,4391826.0
275.942083,4909024.0
275.893549,5366604.0
275.845015,5749683.0
275.796481,6043231.0
275.747948,6234310.0
275.699414,6315426.0
275.65088,6288669.0
275.602346,6169046.0
275.553813,5984627.0
275.50527900000003,5772452.0
275.456745,5571346.0
275.408211,5414023.0
275.359677,5320281.0
275.311144,5292503.0
275.26261,5314815.0
275.214076,5356827.0
275.165542,5381079.0
275.117009,5351251.0
275.068475,5238437.0
275.019941,5025067.0
274.971407,4707770.0
274.922873,4299533.0
274.87434,3829403.0
274.825806,3337837.0
274.77727200000004,2868361.0
274.72873799999996,2458756.0
274.680205,2134947.0
274.631671,1908647.0
274.583137,1778046.0
274.534603,1730580.0
274.486069,1747156.0
274.43753599999997,1807204.0
274.389002,1893811.0
274.34046800000004,1998171.0
274.29193399999997,2122088.0
274.243401,2276571.0
274.194867,2475402.0
274.146333,2725642.0
274.097799,3020080.0
274.049265,3336046.0
274.00073199999997,3640925.0
273.952198,3900753.0
273.903664,4087686.0
273.85513,4184385.0
273.806597,4185392.0
273.758063,4096267.0
273.70952900000003,3931083.0
273.660995,3708785.0
273.612461,3449050.0
273.563928,3168540.0
273.515394,2878823.0
273.46686,2586823.0
273.418326,2297020.0
273.369793,2013020.0
273.321259,1736824.0
273.272725,1466778.0
273.224191,1197357.0
273.175657,922588.0
273.12712400000004,641527.0
273.07858999999996,362026.0
273.030056,100320.0
272.98152200000004,-122913.0
272.932989,-287409.0
272.884455,-377061.0
272.835921,-382229.0
272.787387,-301113.0
272.738854,-140015.0
272.69032000000004,88115.0
272.64178599999997,366588.0
272.593252,677782.0
272.544718,1004713.0
272.496185,1332054.0
272.44765099999995,1648088.0
272.399117,1947282.0
272.35058300000003,2230872.0
272.30205,2503430.0
272.253516,2766829.0
272.204982,3015567.0
272.156448,3236477.0
272.107914,3412422.0
272.05938100000003,3527206.0
272.010847,3569169.0
271.962313,3532647.0
271.913779,3418139.0
271.865246,3232409.0
271.816712,2989022.0
271.768178,2708471.0
271.719644,2416434.0
271.67111,2139696.0
271.622577,1901138.0
271.574043,1715970.0
271.525509,1590442.0
271.476975,1522633.0
271.428442,1504268.0
271.379908,1522870.0
271.33137400000004,1564111.0
271.28283999999996,1614262.0
271.234306,1662392.0
271.185773,1701890.0
271.137239,1731081.0
271.088705,1752832.0
271.040171,1773200.0
270.99163799999997,1799244.0
270.943104,1836465.0
270.89457000000004,1886563.0
270.84603599999997,1946264.0
270.797502,2007564.0
270.748969,2059214.0
270.700435,2088931.0
270.65190099999995,2085922.0
270.603367,2043225.0
270.55483399999997,1959122.0
270.5063,1836719.0
270.457766,1681431.0
270.409232,1497350.0
270.360698,1284371.0
270.312165,1037805.0
270.26363100000003,750627.0
270.215097,416977.0
270.166563,35089.0
270.11803,-391057.0
270.069496,-850853.0
270.020962,-1326450.0
269.972428,-1793199.0
269.923894,-2222290.0
269.875361,-2585332.0
269.826827,-2858929.0
269.778293,-3027524.0
269.729759,-3084695.0
269.681226,-3034125.0
269.632692,-2890183.0
269.584158,-2676280.0
269.53562400000004,-2419690.0
269.48708999999997,-2144336.0
269.438557,-1865172.0
269.390023,-1587036.0
269.341489,-1307842.0
269.292955,-1023560.0
269.24442200000004,-732376.0
269.19588799999997,-437131.0
269.147354,-146686.0
269.09882000000005,123296.0
269.05028599999997,351029.0
269.001753,512224.0
268.953219,586879.0
268.90468500000003,566965.0
268.85615099999995,461339.0
268.807618,295043.0
268.759084,102728.0
268.71055,-81378.0
268.662016,-232858.0
268.61348300000003,-342029.0
268.564949,-412919.0
268.516415,-458021.0
268.46788100000003,-492323.0
268.419347,-529147.0
268.370814,-578023.0
268.32228,-643705.0
268.273746,-726135.0
268.225212,-821850.0
268.176679,-926627.0
268.128145,-1037812.0
268.079611,-1154681.0
268.031077,-1276320.0
267.982543,-1397952.0
267.93401,-1507422.0
267.885476,-1583958.0
267.83694199999996,-1600917.0
267.788408,-1532486.0
267.739875,-1361812.0
267.691341,-1086758.0
267.642807,-720874.0
267.594273,-289872.0
267.545739,174395.0
267.497206,640332.0
267.44867200000004,1081881.0
267.40013799999997,1481577.0
267.351604,1830750.0
267.303071,2127299.0
267.254537,2372415.0
267.20600299999995,2567735.0
267.157469,2713685.0
267.10893500000003,2809086.0
267.060402,2851813.0
267.011868,2840199.0
266.963334,2774746.0
266.9148,2659676.0
266.866267,2503768.0
266.81773300000003,2319781.0
266.769199,2122021.0
266.720665,1922482.0
266.672131,1727148.0
266.623598,1534309.0
266.575064,1335730.0
266.52653,1119968.0
266.477996,876330.0
266.429463,598294.0
266.380929,285956.0
266.332395,-52476.0
266.283861,-400251.0
266.235327,-733182.0
266.186794,-1022553.0
266.13826,-1239280.0
266.089726,-1357843.0
266.04119199999997,-1358902.0
265.992659,-1230917.0
265.944125,-972155.0
265.895591,-593536.0
265.847057,-120628.0
265.798523,408000.0
265.74998999999997,947293.0
265.701456,1455269.0
265.65292200000005,1901736.0
265.604388,2272539.0
265.555855,2568185.0
265.507321,2798454.0
265.45878700000003,2976267.0
265.41025299999995,3113555.0
265.361719,3219995.0
265.313186,3303581.0
265.264652,3371353.0
265.216118,3429073.0
265.167584,3479613.0
265.11905099999996,3520872.0
265.070517,3544916.0
265.02198300000003,3539824.0
264.973449,3493890.0
264.924915,3399798.0
264.876382,3256193.0
264.827848,3066290.0
264.779314,2835552.0
264.73078,2570680.0
264.682247,2280269.0
264.633713,1975738.0
264.585179,1671009.0
264.536645,1380276.0
264.488112,1114340.0
264.439578,876997.0
264.391044,663794.0
264.34251,464952.0
264.293976,271931.0
264.245443,84342.0
264.196909,-86836.0
264.148375,-221560.0
264.099841,-297090.0
264.051308,-295206.0
264.00277400000004,-207489.0
263.95423999999997,-37391.0
263.905706,200949.0
263.85717200000005,486255.0
263.808639,794379.0
263.76010499999995,1101484.0
263.711571,1385357.0
263.66303700000003,1625563.0
263.614504,1803701.0
263.56597,1904196.0
263.517436,1915214.0
263.468902,1829478.0
263.420368,1645576.0
263.37183500000003,1369926.0
263.32330099999996,1018085.0
263.274767,613197.0
263.226233,180778.0
263.1777,-258294.0
263.129166,-693033.0
263.080632,-1122950.0
263.032098,-1553542.0
262.983564,-1988709.0
262.935031,-2423753.0
262.886497,-2842338.0
262.837963,-3218658.0
262.789429,-3523279.0
262.740896,-3729797.0
262.692362,-3820346.0
262.643828,-3789703.0
262.59529399999997,-3647943.0
262.54676,-3420584.0
262.498227,-3144872.0
262.449693,-2862571.0
262.401159,-2611692.0
262.352625,-2419697.0
262.30409199999997,-2299225.0
262.255558,-2246374.0
262.20702400000005,-2242248.0
262.15849,-2258801.0
262.109956,-2268326.0
262.061423,-2253004.0
262.01288900000003,-2210145.0
261.96435499999995,-2151094.0
261.915821,-2095283.0
261.867288,-2062928.0
261.818754,-2069422.0
261.77022,-2122793.0
261.721686,-2223724.0
261.673152,-2366273.0
261.624619,-2537683.0
261.57608500000003,-2717737.0
261.52755099999996,-2880112.0
261.479017,-2997662.0
261.430484,-3050414.0
261.38195,-3032347.0
261.333416,-2953632.0
261.284882,-2837862.0
261.236348,-2715988.0
261.187815,-2618780.0
261.139281,-2569230.0
261.090747,-2576769.0
261.042213,-2635375.0
260.99368,-2726628.0
260.945146,-2826562.0
260.896612,-2913613.0
260.848078,-2974855.0
260.799545,-3008483.0
260.751011,-3021980.0
260.702477,-3027170.0
260.653943,-3034912.0
260.605409,-3051922.0
260.556876,-3080369.0
260.50834199999997,-3118975.0
260.459808,-3164151.0
260.41127400000005,-3210960.0
260.362741,-3254434.0
260.314207,-3291470.0
260.265673,-3322515.0
260.21713900000003,-3351856.0
260.16860499999996,-3385838.0
260.120072,-3429396.0
260.071538,-3482604.0
260.023004,-3539584.0
259.97447,-3591177.0
259.92593700000003,-3630266.0
259.87740299999996,-3656328.0
259.828869,-3676132.0
259.78033500000004,-3700355.0
259.73180099999996,-3738647.0
259.683268,-3795845.0
259.634734,-3870127.0
259.5862,-3952376.0
259.537666,-4026452.0
259.489133,-4071025.0
259.440599,-4063299.0
259.392065,-3983637.0
259.343531,-3819315.0
259.294997,-3566506.0
259.246464,-3230746.0
259.19793,-2826478.0
259.149396,-2375591.0
259.100862,-1904584.0
259.052329,-1440603.0
259.003795,-1007429.0
258.955261,-622677.0
258.906727,-296823.0
258.858193,-33817.0
258.80966,167362.0
258.761126,310779.0
258.712592,401722.0
258.664058,445536.0
258.615525,447649.0
258.56699100000003,414719.0
258.51845699999996,356035.0
258.469923,283839.0
258.42138900000003,212043.0
258.372856,154172.0
258.324322,122000.0
258.275788,125591.0
258.227254,173899.0
258.178721,274299.0
258.13018700000003,430221.0
258.08165299999996,637905.0
258.033119,884666.0
257.984585,1150717.0
257.936052,1414315.0
257.887518,1657792.0
257.838984,1871314.0
257.79045,2052801.0
257.741917,2204853.0
257.693383,2330912.0
257.644849,2432864.0
257.596315,2511008.0
257.547781,2565973.0
257.499248,2600967.0
257.450714,2622492.0
257.40218,2638638.0
257.35364599999997,2656053.0
257.305113,2677838.0
257.256579,2703989.0
257.208045,2733904.0
257.159511,2768955.0
257.110977,2813469.0
257.06244399999997,2873806.0
257.01391,2956363.0
256.965376,3065377.0
256.916842,3201038.0
256.868309,3358100.0
256.819775,3525318.0
256.77124100000003,3686501.0
256.72270699999996,3823935.0
256.67417400000005,3924051.0
256.62564,3983128.0
256.577106,4009619.0
256.528572,4021002.0
256.480038,4036814.0
256.43150499999996,4072233.0
256.382971,4135518.0
256.33443700000004,4228950.0
256.28590299999996,4350360.0
256.23737,4493286.0
256.188836,4646317.0
256.140302,4793271.0
256.091768,4914917.0
256.043234,4991475.0
255.99470099999996,5004812.0
255.946167,4939968.0
255.897633,4786460.0
255.84909900000002,4540267.0
255.800566,4206699.0
255.75203199999999,3802612.0
255.703498,3355249.0
255.654964,2896434.0
255.60643,2454203.0
255.55789700000003,2046186.0
255.50936299999998,1677589.0
255.460829,1343302.0
255.41229500000003,1031966.0
255.363762,730737.0
255.315228,430484.0
255.266694,130376.0
255.21816,-160370.0
255.16962599999997,-424996.0
255.12109300000003,-644657.0
255.07255899999998,-803832.0
255.024025,-893417.0
254.975491,-911469.0
254.926958,-862982.0
254.87842400000002,-759654.0
254.82988999999998,-619358.0
254.78135600000002,-464157.0
254.73282200000003,-316196.0
254.684289,-192306.0
254.635755,-99526.0
254.587221,-33717.0
254.538687,18097.0
254.490154,72975.0
254.44162000000003,147082.0
254.39308599999998,252163.0
254.344552,393926.0
254.296018,571893.0
254.247485,780127.0
254.19895099999997,1008512.0
254.150417,1244571.0
254.10188300000002,1475842.0
254.05335,1692563.0
